Bi2Zr2O7,,CsTaTeO6,
Wavelength (nm),%R,Wavelength (nm),%R
2000,92.28634644,2000,76.33504486
1999,92.24829865,1999,76.31056213
1998,92.23767853,1998,76.29234314
1997,92.228302,1997,76.27527618
1996,92.18017578,1996,76.26046753
1995,92.16757202,1995,76.22150421
1994,92.14149475,1994,76.21439362
1993,92.11486053,1993,76.19800568
1992,92.11800385,1992,76.18402863
1991,92.08882141,1991,76.1531601
1990,92.07765198,1990,76.14845276
1989,92.05597687,1989,76.14103699
1988,92.03547668,1988,76.11374664
1987,91.99312592,1987,76.10551453
1986,91.98423004,1986,76.08377838
1985,91.97596741,1985,76.05168915
1984,91.96557617,1984,76.06427765
1983,91.91365051,1983,76.02992249
1982,91.90473938,1982,76.00157928
1981,91.88339233,1981,76.00213623
1980,91.87523651,1980,75.97615051
1979,91.85315704,1979,75.96608734
1978,91.83352661,1978,75.95020294
1977,91.81031036,1977,75.93389893
1976,91.79114532,1976,75.92694855
1975,91.78638458,1975,75.91815948
1974,91.75339508,1974,75.8902359
1973,91.75106049,1973,75.89082336
1972,91.72246552,1972,75.87529755
1971,91.71389008,1971,75.85097504
1970,91.71364594,1970,75.85055542
1969,91.67939758,1969,75.82992554
1968,91.65480042,1968,75.8120575
1967,91.64222717,1967,75.80271912
1966,91.63341522,1966,75.78843689
1965,91.63010406,1965,75.78003693
1964,91.59494781,1964,75.75289154
1963,91.60030365,1963,75.75730896
1962,91.55600739,1962,75.72832489
1961,91.55001068,1961,75.73318481
1960,91.55142975,1960,75.72172546
1959,91.53124237,1959,75.70326233
1958,91.5186615,1958,75.70238495
1957,91.49799347,1957,75.68657684
1956,91.49331665,1956,75.68439484
1955,91.48509216,1955,75.67837524
1954,91.47170258,1954,75.6488266
1953,91.4552002,1953,75.65714264
1952,91.44412231,1952,75.64144135
1951,91.43676758,1951,75.62628174
1950,91.44076538,1950,75.63235474
1949,91.40683746,1949,75.6095047
1948,91.40401459,1948,75.60608673
1947,91.39441681,1947,75.61681366
1946,91.37468719,1946,75.60221863
1945,91.36975098,1945,75.58665466
1944,91.36506653,1944,75.5838623
1943,91.34503937,1943,75.56163025
1942,91.35545349,1942,75.57565308
1941,91.33340454,1941,75.5582962
1940,91.31568909,1940,75.54723358
1939,91.32019806,1939,75.56049347
1938,91.31497955,1938,75.55601501
1937,91.30316162,1937,75.54438782
1936,91.30596924,1936,75.54592896
1935,91.30527496,1935,75.54772186
1934,91.30770111,1934,75.55330658
1933,91.29850006,1933,75.54172516
1932,91.2936554,1932,75.54222107
1931,91.29351044,1931,75.52279663
1930,91.28852081,1930,75.52354431
1929,91.2820282,1929,75.51229095
1928,91.2906189,1928,75.53663635
1927,91.29904175,1927,75.53871155
1926,91.28291321,1926,75.52495575
1925,91.29989624,1925,75.52588654
1924,91.29737091,1924,75.5282135
1923,91.3030777,1923,75.53260803
1922,91.3085556,1922,75.52426147
1921,91.30754089,1921,75.5211792
1920,91.3063736,1920,75.54393005
1919,91.33021545,1919,75.54644012
1918,91.3421402,1918,75.54614258
1917,91.34584808,1917,75.54698181
1916,91.35795593,1916,75.54116821
1915,91.37252808,1915,75.56017303
1914,91.38776398,1914,75.56533813
1913,91.40609741,1913,75.5644455
1912,91.42617798,1912,75.57460785
1911,91.43035126,1911,75.58139801
1910,91.44639587,1910,75.55008698
1909,91.47891998,1909,75.57485199
1908,91.48576355,1908,75.57858276
1907,91.49265289,1907,75.56861877
1906,91.51566315,1906,75.57763672
1905,91.49427795,1905,75.55104828
1904,91.52679443,1904,75.56362152
1903,91.53945923,1903,75.57566071
1902,91.5478363,1902,75.57087708
1901,91.57540894,1901,75.58356476
1900,91.57492065,1900,75.58153534
1899,91.58164215,1899,75.57749176
1898,91.60797882,1898,75.59529877
1897,91.60564423,1897,75.58804321
1896,91.61432648,1896,75.5927887
1895,91.62133026,1895,75.58997345
1894,91.62712097,1894,75.58529663
1893,91.61237335,1893,75.583992
1892,91.63045502,1892,75.59936523
1891,91.63564301,1891,75.59529114
1890,91.63524628,1890,75.58409882
1889,91.63922119,1889,75.60294342
1888,91.64442444,1888,75.61060333
1887,91.66070557,1887,75.61547852
1886,91.67639923,1886,75.63617706
1885,91.69322968,1885,75.6460495
1884,91.70083618,1884,75.63752747
1883,91.72550201,1883,75.64053345
1882,91.75405884,1882,75.64066315
1881,91.7802124,1881,75.63863373
1880,91.8137207,1880,75.63775635
1879,91.83782196,1879,75.62479401
1878,91.85871887,1878,75.61018372
1877,91.90176392,1877,75.59689331
1876,91.92906952,1876,75.57562256
1875,91.991745,1875,75.57859802
1874,92.01496124,1874,75.57283783
1873,92.05962372,1873,75.56245422
1872,92.09327698,1872,75.5622406
1871,92.12124634,1871,75.55697632
1870,92.15493774,1870,75.53855896
1869,92.21429443,1869,75.54668427
1868,92.26148224,1868,75.56815338
1867,92.28314209,1867,75.56426239
1866,92.31038666,1866,75.54508209
1865,92.33148956,1865,75.5231781
1864,92.35601044,1864,75.50816345
1863,92.37226105,1863,75.49263763
1862,92.39133453,1862,75.48486328
1861,92.41943359,1861,75.50602722
1860,92.40560913,1860,75.50349426
1859,92.42475891,1859,75.49819946
1858,92.43787384,1858,75.47562408
1857,92.44917297,1857,75.49055481
1856,92.44795227,1856,75.48971558
1855,92.44364166,1855,75.49101257
1854,92.46113586,1854,75.50347137
1853,92.46294403,1853,75.48145294
1852,92.4709549,1852,75.45935822
1851,92.47360992,1851,75.44250488
1850,92.47160339,1850,75.45722198
1849,92.47763824,1849,75.43746948
1848,92.49034882,1848,75.44432068
1847,92.48451233,1847,75.41932678
1846,92.48592377,1846,75.40281677
1845,92.48168182,1845,75.38874817
1844,92.5018692,1844,75.3865509
1843,92.49789429,1843,75.38000488
1842,92.50221252,1842,75.37540436
1841,92.51195526,1841,75.35693359
1840,92.50652313,1840,75.35017395
1839,92.49945068,1839,75.3447113
1838,92.5056076,1838,75.33647919
1837,92.51390076,1837,75.32576752
1836,92.5029068,1836,75.31164551
1835,92.52359009,1835,75.30673981
1834,92.50272369,1834,75.29811859
1833,92.51626587,1833,75.29663849
1832,92.522995,1832,75.28514099
1831,92.50906372,1831,75.27877045
1830,92.51357269,1830,75.27344513
1829,92.51205444,1829,75.26251984
1828,92.51500702,1828,75.25669098
1827,92.51055145,1827,75.24842072
1826,92.5018692,1826,75.24144745
1825,92.50919342,1825,75.23712921
1824,92.51696777,1824,75.24238586
1823,92.50759888,1823,75.23298645
1822,92.51245117,1822,75.21592712
1821,92.49000549,1821,75.20020294
1820,92.49596405,1820,75.21799469
1819,92.4825592,1819,75.1892395
1818,92.48672485,1818,75.1844101
1817,92.47928619,1817,75.16049957
1816,92.48419952,1816,75.16829681
1815,92.47266388,1815,75.16451263
1814,92.48616791,1814,75.15661621
1813,92.46986389,1813,75.13959503
1812,92.47783661,1812,75.14633179
1811,92.45623779,1811,75.12341309
1810,92.46906281,1810,75.12243652
1809,92.47154236,1809,75.11476898
1808,92.47363281,1808,75.10552979
1807,92.46723938,1807,75.09998322
1806,92.46244049,1806,75.09793854
1805,92.46137238,1805,75.0766983
1804,92.45599365,1804,75.06269836
1803,92.45722961,1803,75.07167816
1802,92.4644165,1802,75.07778931
1801,92.45082855,1801,75.05947113
1800,92.44748688,1800,75.05460358
1799,92.44772339,1799,75.04098511
1798,92.4420166,1798,75.02906036
1797,92.45977783,1797,75.03336334
1796,92.44594574,1796,75.02360535
1795,92.46075439,1795,75.02028656
1794,92.44412994,1794,75.00534821
1793,92.44974518,1793,75.00984955
1792,92.4421463,1792,74.994133
1791,92.44748688,1791,74.99576569
1790,92.43658447,1790,74.97444916
1789,92.44901276,1789,74.97998047
1788,92.44909668,1788,74.97348785
1787,92.44577026,1787,74.9701767
1786,92.44573975,1786,74.95513916
1785,92.4352951,1785,74.94416809
1784,92.44256592,1784,74.93231964
1783,92.44042206,1783,74.92370605
1782,92.44692993,1782,74.91985321
1781,92.44111633,1781,74.90775299
1780,92.44304657,1780,74.90357208
1779,92.45001221,1779,74.90005493
1778,92.44833374,1778,74.89162445
1777,92.45603943,1777,74.88957977
1776,92.4640274,1776,74.88508606
1775,92.45508575,1775,74.87596893
1774,92.45813751,1774,74.86734009
1773,92.46601105,1773,74.87482452
1772,92.47068787,1772,74.86971283
1771,92.46911621,1771,74.85574341
1770,92.47615051,1770,74.85476685
1769,92.47379303,1769,74.84760284
1768,92.4839859,1768,74.84996033
1767,92.48680115,1767,74.84889221
1766,92.49261475,1766,74.83821106
1765,92.50045013,1765,74.82791901
1764,92.50238037,1764,74.83044434
1763,92.51219177,1763,74.82216644
1762,92.51763916,1762,74.82322693
1761,92.52165985,1761,74.82359314
1760,92.51830292,1760,74.81758881
1759,92.51761627,1759,74.80780029
1758,92.5364151,1758,74.8200531
1757,92.54373932,1757,74.80461121
1756,92.5428772,1756,74.80608368
1755,92.54660034,1755,74.79486084
1754,92.55342865,1754,74.79212952
1753,92.5437851,1753,74.782547
1752,92.55039215,1752,74.7692337
1751,92.54440308,1751,74.75720215
1750,92.55039215,1750,74.7497406
1749,92.56544495,1749,74.7522583
1748,92.54825592,1748,74.72807312
1747,92.54338837,1747,74.70396423
1746,92.54026794,1746,74.70701599
1745,92.56495667,1745,74.69203186
1744,92.5877533,1744,74.6698761
1743,92.59326172,1743,74.67952728
1742,92.59803772,1742,74.6807785
1741,92.57907867,1741,74.66604614
1740,92.57988739,1740,74.65538025
1739,92.61077881,1739,74.66497803
1738,92.61334229,1738,74.69304657
1737,92.62644958,1737,74.70561218
1736,92.63644409,1736,74.69839478
1735,92.6523056,1735,74.71714783
1734,92.64267731,1734,74.69683838
1733,92.63977051,1733,74.68561554
1732,92.64586639,1732,74.70091248
1731,92.65711975,1731,74.70037079
1730,92.63214111,1730,74.69589996
1729,92.61417389,1729,74.67392731
1728,92.64768982,1728,74.67988586
1727,92.65231323,1727,74.69902039
1726,92.64434814,1726,74.69275665
1725,92.63659668,1725,74.66994476
1724,92.65955353,1724,74.67609406
1723,92.65563202,1723,74.65764618
1722,92.63722992,1722,74.65881348
1721,92.64194489,1721,74.67491913
1720,92.65882874,1720,74.6654892
1719,92.63326263,1719,74.65440369
1718,92.65170288,1718,74.66229248
1717,92.66943359,1717,74.65783691
1716,92.65361023,1716,74.66265869
1715,92.6335907,1715,74.65270996
1714,92.6388092,1714,74.63486481
1713,92.64524841,1713,74.65213776
1712,92.63021088,1712,74.6468277
1711,92.66029358,1711,74.64252472
1710,92.66817474,1710,74.64922333
1709,92.67268372,1709,74.66061401
1708,92.64778137,1708,74.6289978
1707,92.65475464,1707,74.63202667
1706,92.67990875,1706,74.65764618
1705,92.63635254,1705,74.63241577
1704,92.66872406,1704,74.63832855
1703,92.68543243,1703,74.64653015
1702,92.66673279,1702,74.63595581
1701,92.66040802,1701,74.63622284
1700,92.68637085,1700,74.62763214
1699,92.67626953,1699,74.60663605
1698,92.66816711,1698,74.63140869
1697,92.70111084,1697,74.63994598
1696,92.68874359,1696,74.62385559
1695,92.69792175,1695,74.62965393
1694,92.67369843,1694,74.62369537
1693,92.6820755,1693,74.61600494
1692,92.69873047,1692,74.63166809
1691,92.6856842,1691,74.6184082
1690,92.69909668,1690,74.61786652
1689,92.6933136,1689,74.61107635
1688,92.67910767,1688,74.60220337
1687,92.71681976,1687,74.63257599
1686,92.68628693,1686,74.58486938
1685,92.68289185,1685,74.59062195
1684,92.69371033,1684,74.60319519
1683,92.66603851,1683,74.58745575
1682,92.66946411,1682,74.56913757
1681,92.67266846,1681,74.58230591
1680,92.66387177,1680,74.57881927
1679,92.64030457,1679,74.55332947
1678,92.64550018,1678,74.52420807
1677,92.64590454,1677,74.53430176
1676,92.63096619,1676,74.53670502
1675,92.62939453,1675,74.52938843
1674,92.61491394,1674,74.50796509
1673,92.61521912,1673,74.51746368
1672,92.61146545,1672,74.50325775
1671,92.6025238,1671,74.49671936
1670,92.58203888,1670,74.47528839
1669,92.57675171,1669,74.46221161
1668,92.57279205,1668,74.45761871
1667,92.59288025,1667,74.48007202
1666,92.55145264,1666,74.43514252
1665,92.56354523,1665,74.43470001
1664,92.55342865,1664,74.42446136
1663,92.52104187,1663,74.41091919
1662,92.53112793,1662,74.41132355
1661,92.53580475,1661,74.39990997
1660,92.52139282,1660,74.38985443
1659,92.52778625,1659,74.38770294
1658,92.50089264,1658,74.35383606
1657,92.51532745,1657,74.36178589
1656,92.51322174,1656,74.35969543
1655,92.49454498,1655,74.33583069
1654,92.49173737,1654,74.33434296
1653,92.49748993,1653,74.33293915
1652,92.47348022,1652,74.31175232
1651,92.49347687,1651,74.31530762
1650,92.47001648,1650,74.29982758
1649,92.46025848,1649,74.27610779
1648,92.45048523,1648,74.2671051
1647,92.45181274,1647,74.266716
1646,92.48861694,1646,74.29129791
1645,92.44320679,1645,74.24280548
1644,92.43067169,1644,74.22042847
1643,92.44048309,1643,74.23682404
1642,92.41344452,1642,74.22032928
1641,92.43920135,1641,74.20832062
1640,92.43455505,1640,74.21513367
1639,92.44107819,1639,74.21125031
1638,92.44172668,1638,74.19777679
1637,92.41134644,1637,74.17353821
1636,92.42850494,1636,74.16352081
1635,92.43187714,1635,74.18326569
1634,92.42357635,1634,74.16950226
1633,92.43145752,1633,74.16454315
1632,92.45120239,1632,74.16825867
1631,92.44219971,1631,74.16500854
1630,92.43443298,1630,74.14154816
1629,92.45654297,1629,74.15426636
1628,92.42733765,1628,74.13510895
1627,92.44960022,1627,74.14022064
1626,92.45213318,1626,74.12666321
1625,92.45761871,1625,74.12828064
1624,92.47229004,1624,74.13386536
1623,92.46847534,1623,74.12749481
1622,92.44868469,1622,74.08849335
1621,92.45337677,1621,74.08820343
1620,92.46450043,1620,74.10162354
1619,92.43547821,1619,74.07933807
1618,92.46257782,1618,74.07758331
1617,92.44663239,1617,74.06685638
1616,92.43952942,1616,74.05534363
1615,92.44241333,1615,74.0434494
1614,92.42645264,1614,74.02669525
1613,92.41327667,1613,74.00563049
1612,92.43701172,1612,74.00791931
1611,92.4037323,1611,73.99738312
1610,92.40753174,1610,73.97556305
1609,92.4046936,1609,73.9699707
1608,92.39788818,1608,73.94698334
1607,92.38557434,1607,73.94038391
1606,92.38653564,1606,73.93862915
1605,92.39422607,1605,73.92871094
1604,92.35783386,1604,73.89579773
1603,92.36528015,1603,73.88359833
1602,92.36933899,1602,73.88257599
1601,92.36351776,1601,73.87827301
1600,92.38809967,1600,73.89033508
1599,92.35816956,1599,73.86383057
1598,92.34806061,1598,73.83707428
1597,92.36633301,1597,73.84010315
1596,92.33914948,1596,73.83496094
1595,92.3288269,1595,73.81002808
1594,92.35102081,1594,73.80476379
1593,92.36209106,1593,73.80909729
1592,92.35007477,1592,73.79320526
1591,92.34345245,1591,73.79232025
1590,92.34437561,1590,73.77980804
1589,92.34008026,1589,73.74021149
1588,92.33306885,1588,73.74417877
1587,92.33547974,1587,73.75320435
1586,92.34339905,1586,73.7411499
1585,92.34645081,1585,73.7191391
1584,92.34465027,1584,73.71702576
1583,92.33654785,1583,73.70383453
1582,92.34012604,1582,73.70462036
1581,92.31863403,1581,73.6727829
1580,92.31195831,1580,73.67479706
1579,92.32292938,1579,73.67201996
1578,92.32770538,1578,73.65617371
1577,92.34475708,1577,73.66221619
1576,92.32293701,1576,73.63289642
1575,92.31314087,1575,73.62156677
1574,92.33276367,1574,73.62880707
1573,92.31432343,1573,73.60447693
1572,92.30197906,1572,73.59692383
1571,92.32198334,1571,73.59102631
1570,92.31874084,1570,73.57785797
1569,92.31243134,1569,73.56945038
1568,92.30991364,1568,73.56520081
1567,92.30445862,1567,73.55674744
1566,92.30140686,1566,73.53233337
1565,92.31438446,1565,73.51892853
1564,92.30256653,1564,73.51405334
1563,92.301651,1563,73.51117706
1562,92.27955627,1562,73.49507904
1561,92.30951691,1561,73.49588776
1560,92.29784393,1560,73.47209167
1559,92.28646088,1559,73.46598816
1558,92.29615784,1558,73.459198
1557,92.27967834,1557,73.4304657
1556,92.26501465,1556,73.42480469
1555,92.2700882,1555,73.42261505
1554,92.27955627,1554,73.41571808
1553,92.28491211,1553,73.40058899
1552,92.28227997,1552,73.40590668
1551,92.28012085,1551,73.38108826
1550,92.27398682,1550,73.36626434
1549,92.27069092,1549,73.35903168
1548,92.2556839,1548,73.34285736
1547,92.22705078,1547,73.33413696
1546,92.2696991,1546,73.33895111
1545,92.25450897,1545,73.302948
1544,92.24277496,1544,73.3057251
1543,92.24948883,1543,73.3035965
1542,92.24597168,1542,73.28765869
1541,92.2379303,1541,73.26332855
1540,92.24501038,1540,73.2503891
1539,92.24539185,1539,73.2587738
1538,92.22956085,1538,73.24538422
1537,92.23730469,1537,73.21521759
1536,92.2194519,1536,73.22264862
1535,92.231987,1535,73.22015381
1534,92.22999573,1534,73.19503021
1533,92.23139954,1533,73.19694519
1532,92.22026825,1532,73.1802597
1531,92.20977783,1531,73.16143799
1530,92.19985962,1530,73.14683533
1529,92.20511627,1529,73.13420105
1528,92.19826508,1528,73.12767029
1527,92.20160675,1527,73.12366486
1526,92.22194672,1526,73.1210022
1525,92.18997955,1525,73.09173584
1524,92.19516754,1524,73.07489014
1523,92.19143677,1523,73.06454468
1522,92.18159485,1522,73.0641861
1521,92.16428375,1521,73.04544067
1520,92.17542267,1520,73.03173828
1519,92.18041229,1519,73.02915955
1518,92.17611694,1518,73.01002502
1517,92.16967773,1517,73.00801086
1516,92.1566391,1516,72.99081421
1515,92.15470123,1515,72.97245789
1514,92.16326141,1514,72.96430206
1513,92.14634705,1513,72.94873047
1512,92.14633942,1512,72.94020844
1511,92.14021301,1511,72.93331909
1510,92.14621735,1510,72.92195892
1509,92.14372253,1509,72.90653229
1508,92.13697052,1508,72.900177
1507,92.11933136,1507,72.88001251
1506,92.13420105,1506,72.88014221
1505,92.11075592,1505,72.85396576
1504,92.10933685,1504,72.84557343
1503,92.11740112,1503,72.83724213
1502,92.11545563,1502,72.82182312
1501,92.09296417,1501,72.80699921
1500,92.09637451,1500,72.80754852
1499,92.1051712,1499,72.79925537
1498,92.12332153,1498,72.7954483
1497,92.087677,1497,72.75114441
1496,92.0688324,1496,72.74286652
1495,92.08769989,1495,72.75061035
1494,92.07326508,1494,72.73296356
1493,92.05635834,1493,72.7159729
1492,92.05349731,1492,72.70865631
1491,92.06352234,1491,72.70223999
1490,92.0741272,1490,72.70103455
1489,92.03294373,1489,72.66145325
1488,92.05249786,1488,72.6593399
1487,92.04018402,1487,72.65751648
1486,92.05381012,1486,72.65184784
1485,92.03339386,1485,72.62625885
1484,92.02731323,1484,72.61235046
1483,92.02836609,1483,72.60199738
1482,92.01993561,1482,72.58850098
1481,92.00793457,1481,72.57061768
1480,92.01284027,1480,72.57128143
1479,92.00105286,1479,72.56623077
1478,92.00260162,1478,72.5410614
1477,92.01042938,1477,72.53821564
1476,91.99528503,1476,72.5152359
1475,91.99200439,1475,72.51564789
1474,91.97819519,1474,72.48808289
1473,91.97958374,1473,72.47872925
1472,91.96710968,1472,72.46131897
1471,91.96602631,1471,72.44862366
1470,91.97490692,1470,72.45303345
1469,91.95780182,1469,72.43132782
1468,91.9352951,1468,72.40083313
1467,91.9377594,1467,72.39169312
1466,91.93458557,1466,72.38439941
1465,91.95565796,1465,72.39154816
1464,91.93758392,1464,72.36262512
1463,91.92974091,1463,72.34124756
1462,91.92463684,1462,72.34389496
1461,91.93579865,1461,72.33689117
1460,91.91197205,1460,72.31987762
1459,91.90689087,1459,72.30397797
1458,91.91100311,1458,72.30471039
1457,91.91271973,1457,72.29291534
1456,91.911026,1456,72.27983856
1455,91.90782928,1455,72.27346039
1454,91.90252686,1454,72.25720215
1453,91.89365387,1453,72.25765228
1452,91.89958191,1452,72.23664093
1451,91.90332031,1451,72.22687531
1450,91.90898895,1450,72.21897125
1449,91.90339661,1449,72.20661926
1448,91.90855408,1448,72.20684052
1447,91.90995789,1447,72.1860199
1446,91.90448761,1446,72.16590881
1445,91.91230011,1445,72.17340088
1444,91.90982819,1444,72.15380859
1443,91.91188049,1443,72.14536285
1442,91.91850281,1442,72.13098145
1441,91.92759705,1441,72.11821747
1440,91.92009735,1440,72.10758209
1439,91.92489624,1439,72.10185242
1438,91.91658783,1438,72.08626556
1437,91.92751312,1437,72.06741333
1436,91.92910004,1436,72.06774902
1435,91.931633,1435,72.0582962
1434,91.9251709,1434,72.0497818
1433,91.93107605,1433,72.03897858
1432,91.93692017,1432,72.02316284
1431,91.9382782,1431,72.0149765
1430,91.95105743,1430,72.00591278
1429,91.94707489,1429,71.99913025
1428,91.9561615,1428,71.99651337
1427,91.94983673,1427,71.98154449
1426,91.95217133,1426,71.97325134
1425,91.95277405,1425,71.95870209
1424,91.95693207,1424,71.96517944
1423,91.96853638,1423,71.95322418
1422,91.97720337,1422,71.95046234
1421,91.97934723,1421,71.93460083
1420,91.97743988,1420,71.93499756
1419,92.0088501,1419,71.94140625
1418,92.00276947,1418,71.92598724
1417,91.9969635,1417,71.91983795
1416,92.01481628,1416,71.90927124
1415,92.0233078,1415,71.92398071
1414,91.99355316,1414,71.84628296
1413,92.03993225,1413,71.89795685
1412,92.04405975,1412,71.91005707
1411,92.0477066,1411,71.92526245
1410,92.10682678,1410,71.9173584
1409,92.11820221,1409,71.92658997
1408,92.12985992,1408,71.91042328
1407,92.13478851,1407,71.89581299
1406,92.17237854,1406,71.93452454
1405,92.1641922,1405,71.89866638
1404,92.21652985,1404,71.92113495
1403,92.23938751,1403,71.90879822
1402,92.27603912,1402,71.92904663
1401,92.27612305,1401,71.93087006
1400,92.27304077,1400,71.89151001
1399,92.32355499,1399,71.92710876
1398,92.35510254,1398,71.96239471
1397,92.35639191,1397,71.93428802
1396,92.40860748,1396,71.93764496
1395,92.360672,1395,71.94869232
1394,92.40926361,1394,71.98082733
1393,92.462883,1393,72.00430298
1392,92.44478607,1392,71.96873474
1391,92.52502441,1391,72.01502228
1390,92.5546875,1390,72.0230484
1389,92.53413391,1389,72.01332855
1388,92.5477829,1388,71.99965668
1387,92.58290863,1387,71.99687195
1386,92.58233643,1386,71.9617691
1385,92.56712341,1385,71.92803192
1384,92.56754303,1384,71.89332581
1383,92.57542419,1383,71.85782623
1382,92.55304718,1382,71.86555481
1381,92.54186249,1381,71.80889893
1380,92.51650238,1380,71.7461319
1379,92.49588013,1379,71.70567322
1378,92.46666718,1378,71.65271759
1377,92.44622803,1377,71.60057068
1376,92.38844299,1376,71.53692627
1375,92.34590149,1375,71.4863739
1374,92.3327713,1374,71.45813751
1373,92.30832672,1373,71.42562103
1372,92.28339386,1372,71.38799286
1371,92.26010132,1371,71.36154175
1370,92.24304199,1370,71.33019257
1369,92.20586395,1369,71.29144287
1368,92.2124176,1368,71.26959229
1367,92.22413635,1367,71.26951599
1366,92.19407654,1366,71.21741486
1365,92.1632309,1365,71.15955353
1364,92.1712265,1364,71.11325073
1363,92.14305878,1363,71.10021973
1362,92.15370178,1362,71.02694702
1361,92.13080597,1361,70.99106598
1360,92.12037659,1360,70.94314575
1359,92.12282562,1359,70.92488098
1358,92.09255981,1358,70.88220978
1357,92.10879517,1357,70.85968781
1356,92.07449341,1356,70.8170166
1355,92.06642914,1355,70.77812195
1354,92.05428314,1354,70.75432587
1353,92.08003235,1353,70.754776
1352,92.02872467,1352,70.71048737
1351,92.01849365,1351,70.67622375
1350,92.02005005,1350,70.6824646
1349,92.00145721,1349,70.66709137
1348,91.98468781,1348,70.63967896
1347,91.98073578,1347,70.6317749
1346,91.97503662,1346,70.6016922
1345,91.96385956,1345,70.58891296
1344,91.94538879,1344,70.57603455
1343,91.94609833,1343,70.56964874
1342,91.94210052,1342,70.55272675
1341,91.95374298,1341,70.53964996
1340,91.92804718,1340,70.50886536
1339,91.92366791,1339,70.51180267
1338,91.93164063,1338,70.47032166
1337,91.92920685,1337,70.47050476
1336,91.91057587,1336,70.4522934
1335,91.90414429,1335,70.42661285
1334,91.90816498,1334,70.3871994
1333,91.91632843,1333,70.39332581
1332,91.91318512,1332,70.37516785
1331,91.90193939,1331,70.33940887
1330,91.89503479,1330,70.32186127
1329,91.89944458,1329,70.30497742
1328,91.8910675,1328,70.28395844
1327,91.88946533,1327,70.26220703
1326,91.88114166,1326,70.23891449
1325,91.88426971,1325,70.20903015
1324,91.8884964,1324,70.20232391
1323,91.88670349,1323,70.1836319
1322,91.87559509,1322,70.15171814
1321,91.86078644,1321,70.12273407
1320,91.86390686,1320,70.10649109
1319,91.86544037,1319,70.09487152
1318,91.85990906,1318,70.07002258
1317,91.87069702,1317,70.05538177
1316,91.87168121,1316,70.03227997
1315,91.85640717,1315,69.99993134
1314,91.85322571,1314,69.9765625
1313,91.85393524,1313,69.95632172
1312,91.85306549,1312,69.93840027
1311,91.84770966,1311,69.9123764
1310,91.85241699,1310,69.89067078
1309,91.83439636,1309,69.8625946
1308,91.82806396,1308,69.8228302
1307,91.85139465,1307,69.81829071
1306,91.85617065,1306,69.79029083
1305,91.84596252,1305,69.76080322
1304,91.829216,1304,69.7241745
1303,91.82888031,1303,69.70523834
1302,91.84420776,1302,69.69101715
1301,91.83555603,1301,69.66477966
1300,91.81448364,1300,69.6322403
1299,91.79998779,1299,69.60218811
1298,91.81282806,1298,69.59287262
1297,91.82383728,1297,69.55871582
1296,91.80369568,1296,69.52508545
1295,91.80181885,1295,69.51335144
1294,91.81100464,1294,69.49081421
1293,91.80728912,1293,69.47148895
1292,91.80434418,1292,69.44194794
1291,91.79026031,1291,69.40914154
1290,91.78631592,1290,69.39553833
1289,91.77996826,1289,69.35316467
1288,91.79701996,1288,69.32798767
1287,91.79304504,1287,69.30049896
1286,91.78424835,1286,69.286026
1285,91.77611542,1285,69.25706482
1284,91.77781677,1284,69.23423004
1283,91.77776337,1283,69.20201874
1282,91.77593231,1282,69.17974091
1281,91.77713013,1281,69.1603241
1280,91.77653503,1280,69.12205505
1279,91.76056671,1279,69.09862518
1278,91.76972198,1278,69.0737381
1277,91.76078796,1277,69.0397644
1276,91.77222443,1276,69.02606201
1275,91.75902557,1275,68.98352051
1274,91.75539398,1274,68.95887756
1273,91.75688934,1273,68.93184662
1272,91.75376129,1272,68.90092468
1271,91.75750732,1271,68.88401031
1270,91.74924469,1270,68.8453598
1269,91.7440033,1269,68.82299805
1268,91.73487091,1268,68.78590393
1267,91.73925018,1267,68.75489044
1266,91.74324036,1266,68.73247528
1265,91.74101257,1265,68.71363068
1264,91.73703766,1264,68.67038727
1263,91.7497406,1263,68.65849304
1262,91.74318695,1262,68.63348389
1261,91.73535156,1261,68.60140228
1260,91.74177551,1260,68.56612396
1259,91.72727203,1259,68.53263092
1258,91.73672485,1258,68.50791931
1257,91.72734833,1257,68.47208405
1256,91.72962952,1256,68.44936371
1255,91.73606873,1255,68.42635345
1254,91.73506927,1254,68.38756561
1253,91.72422028,1253,68.35218811
1252,91.72947693,1252,68.32881165
1251,91.71788025,1251,68.29727173
1250,91.71297455,1250,68.26529694
1249,91.70952606,1249,68.23012543
1248,91.71076202,1248,68.19926453
1247,91.72685242,1247,68.1745224
1246,91.7304306,1246,68.14646149
1245,91.7138443,1245,68.09997559
1244,91.69965363,1244,68.06471252
1243,91.70819855,1243,68.03862762
1242,91.69874573,1242,68.00415802
1241,91.69872284,1241,67.96846771
1240,91.70187378,1240,67.93759155
1239,91.69779205,1239,67.9000473
1238,91.69718933,1238,67.86445618
1237,91.68846893,1237,67.83289337
1236,91.68075562,1236,67.78394318
1235,91.68643188,1235,67.75252533
1234,91.68044281,1234,67.72203064
1233,91.67145538,1233,67.68747711
1232,91.66389465,1232,67.64369965
1231,91.66526031,1231,67.61348724
1230,91.66622162,1230,67.57363129
1229,91.66549683,1229,67.53358459
1228,91.66491699,1228,67.50398254
1227,91.66454315,1227,67.46720123
1226,91.65658569,1226,67.43858337
1225,91.65966034,1225,67.3961792
1224,91.65077209,1224,67.35814667
1223,91.64585114,1223,67.3102951
1222,91.64575195,1222,67.27907562
1221,91.65749359,1221,67.2518692
1220,91.65763855,1220,67.21330261
1219,91.65075684,1219,67.1723938
1218,91.64282227,1218,67.1342392
1217,91.64477539,1217,67.10145569
1216,91.64154816,1216,67.05078125
1215,91.6431427,1215,67.01634216
1214,91.6480484,1214,66.9781189
1213,91.6520462,1213,66.94879913
1212,91.63644409,1212,66.90077972
1211,91.62950897,1211,66.85901642
1210,91.62680817,1210,66.81417084
1209,91.63050842,1209,66.77835846
1208,91.63916016,1208,66.74526978
1207,91.63160706,1207,66.69902039
1206,91.62347412,1206,66.65555573
1205,91.62995911,1205,66.622612
1204,91.63234711,1204,66.58056641
1203,91.62414551,1203,66.5274353
1202,91.6313324,1202,66.49714661
1201,91.62980652,1201,66.45671844
1200,91.62799072,1200,66.4093399
1199,91.67646027,1199,66.28825378
1198,91.68927765,1198,66.28240204
1197,91.68757629,1197,66.23317719
1196,91.67667389,1196,66.18221283
1195,91.65657806,1195,66.14046478
1194,91.67208099,1194,66.10612488
1193,91.66497803,1193,66.06295776
1192,91.66647339,1192,66.01287842
1191,91.677948,1191,65.97285461
1190,91.67797852,1190,65.92438507
1189,91.67236328,1189,65.883255
1188,91.67391205,1188,65.83740234
1187,91.66814423,1187,65.78658295
1186,91.66672516,1186,65.74637604
1185,91.68319702,1185,65.70407867
1184,91.67974091,1184,65.6569519
1183,91.66416168,1183,65.60809326
1182,91.66553497,1182,65.56481934
1181,91.65242004,1181,65.50522614
1180,91.65828705,1180,65.45735931
1179,91.66677856,1179,65.41329193
1178,91.6594696,1178,65.36185455
1177,91.65809631,1177,65.30839539
1176,91.65414429,1176,65.26016235
1175,91.64550781,1175,65.21541595
1174,91.64487457,1174,65.16984558
1173,91.63777161,1173,65.11436462
1172,91.64378357,1172,65.06320953
1171,91.63279724,1171,65.01026154
1170,91.64029694,1170,64.95703888
1169,91.63707733,1169,64.91860199
1168,91.62405396,1168,64.85580444
1167,91.62332153,1167,64.8019104
1166,91.62128448,1166,64.75466919
1165,91.6200943,1165,64.70014191
1164,91.6253891,1164,64.64580536
1163,91.70871735,1163,64.59809113
1162,91.60650635,1162,64.54649353
1161,91.60452271,1161,64.49829865
1160,91.6029129,1160,64.44028473
1159,91.59251404,1159,64.38496399
1158,91.6000824,1158,64.32983398
1157,91.58909607,1157,64.27662659
1156,91.53120422,1156,64.18392944
1155,91.60863495,1155,64.1795578
1154,91.62181091,1154,64.12921906
1153,91.61004639,1153,64.07679749
1152,91.64984131,1152,64.02237701
1151,91.60580444,1151,63.9532547
1150,91.60971832,1150,63.90468597
1149,91.614151,1149,63.84883118
1148,91.55586243,1148,63.73141861
1147,91.62886047,1147,63.71940231
1146,91.62727356,1146,63.67398071
1145,91.62825012,1145,63.61649704
1144,91.61685181,1144,63.53331375
1143,91.58601379,1143,63.45979691
1142,91.60028076,1142,63.41098022
1141,91.60348511,1141,63.36510849
1140,91.60577393,1140,63.30639648
1139,91.60626221,1139,63.23310089
1138,91.60339355,1138,63.17052841
1137,91.59014893,1137,63.14335632
1136,91.6062088,1136,63.04212952
1135,91.61042023,1135,62.97008896
1134,91.58997345,1134,62.90481186
1133,91.59361267,1133,62.8502655
1132,91.59049988,1132,62.78455734
1131,91.59339905,1131,62.76311111
1130,91.58900452,1130,62.6445694
1129,91.5873642,1129,62.59595108
1128,91.58872986,1128,62.53062057
1127,91.57290649,1127,62.46989441
1126,91.55540466,1126,62.38713074
1125,91.58732605,1125,62.33427429
1124,91.65094757,1124,62.26854324
1123,91.57946014,1123,62.20420456
1122,91.56400299,1122,62.13122559
1121,91.56990814,1121,62.06227493
1120,91.5615921,1120,61.98558807
1119,91.58174896,1119,61.91896057
1118,91.5668335,1118,61.84391785
1117,91.54956055,1117,61.76400757
1116,91.55833435,1116,61.69537354
1115,91.56580353,1115,61.63376617
1114,91.59236145,1114,61.55879974
1113,91.57168579,1113,61.49223328
1112,91.55105591,1112,61.41810989
1111,91.54560852,1111,61.35348511
1110,91.54827881,1110,61.28108978
1109,91.5066452,1109,61.18286896
1108,91.54207611,1108,61.12695313
1107,91.58499146,1107,61.0762291
1106,91.55994415,1106,60.99894714
1105,91.55467224,1105,60.93791199
1104,91.51071167,1104,60.82206345
1103,91.55945587,1103,60.77184677
1102,91.56533813,1102,60.711689
1101,91.5545578,1101,60.63955307
1100,91.53913116,1100,60.5344429
1099,91.54533386,1099,60.45048141
1098,91.53555298,1098,60.38614655
1097,91.52926636,1097,60.35831451
1096,91.52104187,1096,60.21854401
1095,91.53156281,1095,60.13824463
1094,91.5419693,1094,60.0627594
1093,91.52883911,1093,59.9829483
1092,91.52580261,1092,59.94318008
1091,91.52770996,1091,59.81677246
1090,91.52919769,1090,59.74148941
1089,91.50829315,1089,59.66719437
1088,91.49356842,1088,59.6170311
1087,91.50537109,1087,59.51158905
1086,91.576828,1086,59.43980408
1085,91.50566101,1085,59.37045288
1084,91.50085449,1084,59.28023911
1083,91.45970917,1083,59.17301941
1082,91.51180267,1082,59.12197113
1081,91.56370544,1081,59.03996658
1080,91.51140594,1080,58.9585495
1079,91.5171051,1079,58.87308121
1078,91.50356293,1078,58.75857544
1077,91.51101685,1077,58.69866562
1076,91.49868774,1076,58.59643173
1075,91.4890213,1075,58.50203705
1074,91.49188232,1074,58.41658783
1073,91.49280548,1073,58.33230591
1072,91.48756409,1072,58.2635994
1071,91.50481415,1071,58.1393013
1070,91.49276733,1070,58.05615234
1069,91.46792603,1069,57.97618103
1068,91.46871185,1068,57.90000153
1067,91.47523499,1067,57.79201508
1066,91.47086334,1066,57.70987701
1065,91.43956757,1065,57.62433243
1064,91.5215683,1064,57.52857208
1063,91.46678925,1063,57.46102142
1062,91.46411896,1062,57.36092758
1061,91.46191406,1061,57.24150085
1060,91.47572327,1060,57.19812012
1059,91.48048401,1059,57.09651566
1058,91.44885254,1058,56.97610855
1057,91.46831512,1057,56.89237595
1056,91.46125031,1056,56.7960434
1055,91.43834686,1055,56.70487976
1054,91.44812775,1054,56.59323883
1053,91.45394135,1053,56.51349258
1052,91.44155121,1052,56.42433929
1051,91.44836426,1051,56.30750656
1050,91.40146637,1050,56.22602081
1049,91.38986969,1049,56.12197495
1048,91.46457672,1048,56.0391655
1047,91.41101074,1047,55.94329834
1046,91.39073181,1046,55.83117676
1045,91.41070557,1045,55.72968674
1044,91.41946411,1044,55.67648315
1043,91.40572357,1043,55.54159164
1042,91.41256714,1042,55.44568253
1041,91.40685272,1041,55.33699417
1040,91.3772049,1040,55.22871017
1039,91.39389038,1039,55.15707779
1038,91.40503693,1038,55.02711487
1037,91.38852692,1037,54.95041656
1036,91.4043808,1036,54.84030151
1035,91.34626007,1035,54.73585129
1034,91.35457611,1034,54.64624786
1033,91.39274597,1033,54.53821945
1032,91.36888123,1032,54.4407196
1031,91.36135864,1031,54.33477783
1030,91.38760376,1030,54.25719452
1029,91.35651398,1029,54.11962128
1028,91.35331726,1028,54.01893234
1027,91.35939789,1027,53.92927551
1026,91.33547974,1026,53.80858612
1025,91.36209106,1025,53.7138176
1024,91.35926819,1024,53.6077919
1023,91.32161713,1023,53.4985199
1022,91.30472565,1022,53.39624405
1021,91.34508514,1021,53.294487
1020,91.32991028,1020,53.18962479
1019,91.31945038,1019,53.0726738
1018,91.33628082,1018,52.99810791
1017,91.32601929,1017,52.85815048
1016,91.3055954,1016,52.74289703
1015,91.30298615,1015,52.6460228
1014,91.29623413,1014,52.53565979
1013,91.31087494,1013,52.41545868
1012,91.28694916,1012,52.31655121
1011,91.26607513,1011,52.20777512
1010,91.3000412,1010,52.10947418
1009,91.30778503,1009,52.00558472
1008,91.26984406,1008,51.88978958
1007,91.27476501,1007,51.77412796
1006,91.26700592,1006,51.64699554
1005,91.27541351,1005,51.54913712
1004,91.25883484,1004,51.42057419
1003,91.28012085,1003,51.33705139
1002,91.24621582,1002,51.20881271
1001,91.23183441,1001,51.10118484
1000,91.27136993,1000,50.99189758
999,91.21290588,999,50.88227844
998,91.2495575,998,50.7805748
997,91.23796082,997,50.64904785
996,91.22583771,996,50.54637909
995,91.22560883,995,50.42153168
994,91.21715546,994,50.30260849
993,91.19875336,993,50.19236374
992,91.19342804,992,50.07374191
991,91.2161026,991,49.96839905
990,91.16160583,990,49.84350586
989,91.21307373,989,49.74780273
988,91.18235779,988,49.59302521
987,91.19359589,987,49.47956467
986,91.18041992,986,49.36062241
985,91.17005157,985,49.25469208
984,91.16743469,984,49.13934326
983,91.15005493,983,49.01794434
982,91.19885254,982,48.90727234
981,91.16065216,981,48.79198074
980,91.17124176,980,48.67404556
979,91.14086914,979,48.53440475
978,91.15402985,978,48.42559433
977,91.13853455,977,48.29983139
976,91.13296509,976,48.18001556
975,91.13352203,975,48.05833817
974,91.12932587,974,47.95217133
973,91.13245392,973,47.83209991
972,91.11271667,972,47.71572495
971,91.12836456,971,47.59438324
970,91.10527039,970,47.46835327
969,91.11520386,969,47.35073853
968,91.10759735,968,47.22335815
967,91.10374451,967,47.10988998
966,91.08654022,966,46.9916687
965,91.09090424,965,46.87031937
964,91.09273529,964,46.75479126
963,91.08957672,963,46.63226318
962,91.06896973,962,46.49163818
961,91.09075165,961,46.38428497
960,91.05403137,960,46.26410294
959,91.06238556,959,46.14935303
958,91.06456757,958,46.02335358
957,91.05607605,957,45.89421463
956,91.05203247,956,45.76865387
955,91.05183411,955,45.65106201
954,91.01185608,954,45.5248642
953,91.01834106,953,45.4111557
952,91.03070831,952,45.28788376
951,91.03171539,951,45.16207123
950,91.0071106,950,45.03905487
949,91.0214386,949,44.92467499
948,90.97237396,948,44.80057144
947,91.00408173,947,44.6927681
946,91.00499725,946,44.58496475
945,90.99210358,945,44.48202896
944,90.99183655,944,44.37781525
943,91.01573944,943,44.26859283
942,91.00149536,942,44.14286041
941,90.99913788,941,44.0236702
940,90.98164368,940,43.88389206
939,90.97847748,939,43.77007675
938,90.97000122,938,43.64076233
937,90.94895172,937,43.50995255
936,90.945961,936,43.39270782
935,90.93321228,935,43.25999069
934,90.9151535,934,43.12923431
933,90.91869354,933,43.01510239
932,90.89816284,932,42.88882446
931,90.89386749,931,42.75661087
930,90.87634277,930,42.63821411
929,90.87335205,929,42.51195908
928,90.84912872,928,42.37597656
927,90.85603333,927,42.26057053
926,90.84031677,926,42.14313889
925,90.83393097,925,42.01051712
924,90.81250763,924,41.88244629
923,90.78244019,923,41.75313187
922,90.78258514,922,41.62757874
921,90.76356506,921,41.5004921
920,90.75099945,920,41.37496185
919,90.73670197,919,41.25215149
918,90.73732758,918,41.12084198
917,90.71315765,917,40.99542236
916,90.71417236,916,40.86672211
915,90.68833923,915,40.75032043
914,90.67914581,914,40.62612915
913,90.65496826,913,40.50278473
912,90.64568329,912,40.37982941
911,90.63378143,911,40.24566269
910,90.61917877,910,40.12781143
909,90.62141418,909,39.99641418
908,90.58872223,908,39.88167191
907,90.57608032,907,39.75919342
906,90.5599823,906,39.61333466
905,90.55726624,905,39.4861412
904,90.53687286,904,39.37395859
903,90.51318359,903,39.24118423
902,90.50559998,902,39.11656189
901,90.47740936,901,38.9931488
900,90.50240326,900,38.87704849
899,90.46875,899,38.72460938
898,90.45922852,898,38.62394333
897,90.42853546,897,38.49638748
896,90.43514252,896,38.3771286
895,90.40720367,895,38.25598526
894,90.3842392,894,38.12739944
893,90.37419128,893,38.00384903
892,90.37212372,892,37.85397339
891,90.3510437,891,37.75541306
890,90.35936737,890,37.62037659
889,90.30718231,889,37.48624802
888,90.29636383,888,37.37119293
887,90.27927399,887,37.25257111
886,90.25983429,886,37.10598755
885,90.25341797,885,36.99179459
884,90.23129272,884,36.86238098
883,90.21083069,883,36.75187302
882,90.20339966,882,36.63198471
881,90.17131042,881,36.49549866
880,90.15198517,880,36.35434723
879,90.14376831,879,36.26593781
878,90.10177612,878,36.12496185
877,90.10005188,877,36.00801086
876,90.09069061,876,35.89964294
875,90.08437347,875,35.78186417
874,90.03959656,874,35.6435318
873,90.00952911,873,35.50842285
872,90.04402161,872,35.38547897
871,90.01858521,871,35.28291702
870,89.98051453,870,35.13124466
869,89.93756104,869,35.00831223
868,89.929245,868,34.91405106
867,89.92667389,867,34.80078125
866,89.91908264,866,34.67331314
865,89.90041351,865,34.53393173
864,89.86455536,864,34.42730713
863,89.84270477,863,34.28134155
862,89.867836,862,34.16897202
861,89.8276062,861,34.06679916
860,89.81018066,860,33.95989227
859,89.79298401,859,33.81202316
858,89.78181458,858,33.68212128
857,89.7493515,857,33.58409882
856,89.77368164,856,33.46647263
855,89.74708557,855,33.35437012
854,89.73595428,854,33.20441055
853,89.69741821,853,33.09031677
852,89.66078949,852,33.01478958
851,89.66194916,851,32.87272644
850,89.63790894,850,32.77326965
849,89.64022827,849,32.63936615
848,89.58943939,848,32.51255417
847,89.59632111,847,32.36819839
846,89.55553436,846,32.2499733
845,89.55206299,845,32.1929245
844,89.51334381,844,32.08827209
843,89.54839325,843,31.98510742
842,89.50102234,842,31.792202
841,89.56591797,841,31.69548798
840,89.45335388,840,31.58626175
839,89.42595673,839,31.48282433
838,89.45444489,838,31.34148026
837,89.52159119,837,31.29045868
836,89.43034363,836,31.12657166
835,89.40864563,835,31.05330849
834,89.3983078,834,30.91050148
833,89.40867615,833,30.82608795
832,89.3736496,832,30.71330261
831,89.33680725,831,30.58778572
830,89.42751312,830,30.5149498
829,89.36386871,829,30.40594673
828,89.37572479,828,30.25266266
827,89.30795288,827,30.15271759
826,89.36425781,826,30.05236435
825,89.34409332,825,29.9554081
824,89.29169464,824,29.8286705
823,89.31499481,823,29.73843765
822,89.29081726,822,29.63882637
821,89.27767944,821,29.50877571
820,89.20272827,820,29.3590126
819,89.28510284,819,29.31991768
818,89.22412109,818,29.18091965
817,89.18354797,817,29.08112335
816,89.1295166,816,29.04383469
815,89.16712189,815,28.92464447
814,89.12394714,814,28.84623337
813,89.23886108,813,28.69215965
812,89.15058899,812,28.63001823
811,89.14953613,811,28.47951126
810,89.10199738,810,28.40726662
809,89.12932587,809,28.32473755
808,89.06074524,808,28.24253464
807,89.09098816,807,28.07912827
806,89.02510834,806,28.05620766
805,89.08022308,805,27.94479179
804,89.01280975,804,27.77446556
803,89.03679657,803,27.74925232
802,89.02622223,802,27.61985397
801,89.03048706,801,27.60690689
800,88.95326996,800,27.42212677
799,88.55913544,799,26.49707413
798,88.55183411,798,26.38633347
797,88.52622223,797,26.28116035
796,88.41417694,796,26.1736927
795,88.33192444,795,26.06122208
794,88.53338623,794,25.95428848
793,88.39443207,793,25.92960548
792,88.36071014,792,25.84234238
791,88.46165466,791,25.71707916
790,88.34347534,790,25.67386055
789,88.23146057,789,25.4527874
788,88.11735535,788,25.3879776
787,88.34015656,787,25.31663513
786,88.25215149,786,25.21389198
785,88.24464417,785,25.19492531
784,88.20326996,784,25.03177452
783,88.29815674,783,24.99031258
782,88.11112976,782,24.86687851
781,88.13559723,781,24.78420448
780,88.06061554,780,24.67237282
779,88.15765381,779,24.64660835
778,88.11870575,778,24.54843521
777,88.0898056,777,24.42029953
776,88.06635284,776,24.40659714
775,88.15895081,775,24.31671333
774,88.18254089,774,24.17840004
773,88.08724213,773,24.15468597
772,87.9546814,772,24.07701683
771,88.01806641,771,23.94149399
770,88.03210449,770,23.85648346
769,87.95349121,769,23.84984589
768,87.93663788,768,23.72070313
767,88.00637817,767,23.61984444
766,87.87705994,766,23.57826233
765,88.01469421,765,23.44770241
764,88.00046539,764,23.41023254
763,87.84602356,763,23.28876305
762,87.87362671,762,23.23182106
761,87.97429657,761,23.18528366
760,87.87018585,760,23.08569908
759,87.76843262,759,22.99224663
758,87.83848572,758,22.97296333
757,87.9074173,757,22.85075378
756,87.75894928,756,22.80334473
755,87.82221222,755,22.72154617
754,87.77056122,754,22.65281677
753,87.67717743,753,22.55292511
752,87.67486572,752,22.51642418
751,87.71320343,751,22.41096497
750,87.81309509,750,22.35561371
749,87.79982758,749,22.30411148
748,87.67758942,748,22.2164135
747,87.67493439,747,22.13588715
746,87.57069397,746,22.06703377
745,87.64769745,745,21.96543121
744,87.65167236,744,21.92949104
743,87.58099365,743,21.83620644
742,87.53791046,742,21.78541756
741,87.5036087,741,21.70259666
740,87.49954987,740,21.6590023
739,87.37541962,739,21.56884575
738,87.38088989,738,21.51430321
737,87.43325043,737,21.44174957
736,87.45310211,736,21.37997055
735,87.36003113,735,21.30303764
734,87.40261078,734,21.2318306
733,87.2403717,733,21.15045547
732,87.28633118,732,21.11272812
731,87.28777313,731,21.01877022
730,87.1838913,730,20.97823715
729,87.37481689,729,20.92617989
728,87.24737549,728,20.85783768
727,87.21955109,727,20.80871391
726,87.11460876,726,20.74108696
725,87.13296509,725,20.69411659
724,87.09706879,724,20.58086014
723,87.14654541,723,20.56226921
722,87.11303711,722,20.50115395
721,87.00819397,721,20.42855835
720,87.03656006,720,20.39871979
719,86.99813843,719,20.33820724
718,86.92571259,718,20.24719429
717,86.9585495,717,20.1950531
716,86.91189575,716,20.13331032
715,86.76410675,715,20.06101036
714,86.78211212,714,20.00172806
713,86.82074738,713,19.94951439
712,86.8164444,712,19.94338989
711,86.68294525,711,19.85210419
710,86.64735413,710,19.76420212
709,86.60887146,709,19.75085068
708,86.62710571,708,19.68753242
707,86.59230804,707,19.63847923
706,86.58483124,706,19.57744217
705,86.49195099,705,19.53508377
704,86.47866821,704,19.46329117
703,86.53843689,703,19.41046333
702,86.45404053,702,19.38424301
701,86.36476135,701,19.3251915
700,86.36022949,700,19.2592926
699,86.37934875,699,19.20272446
698,86.2767334,698,19.14925957
697,86.2749176,697,19.12027359
696,86.20691681,696,19.0677681
695,86.13293457,695,19.01255035
694,86.09214783,694,18.96510506
693,86.07604218,693,18.91463089
692,86.03746796,692,18.8600235
691,86.01205444,691,18.80693817
690,86.00363922,690,18.77474594
689,85.95249939,689,18.73319244
688,85.8915329,688,18.67969131
687,85.85397339,687,18.64357948
686,85.76190186,686,18.58188057
685,85.75263977,685,18.52348328
684,85.72195435,684,18.49502182
683,85.67800903,683,18.45500755
682,85.60757446,682,18.40084457
681,85.59641266,681,18.35523796
680,85.54472351,680,18.31106567
679,85.41716766,679,18.25137901
678,85.41260529,678,18.22746277
677,85.34351349,677,18.19866943
676,85.29853821,676,18.12169647
675,85.2022934,675,18.11180496
674,85.18805695,674,18.06432343
673,85.099617,673,18.0129776
672,85.08493805,672,17.98228645
671,85.0046463,671,17.93810272
670,84.94119263,670,17.89314461
669,84.90411377,669,17.8487072
668,84.84231567,668,17.81900787
667,84.71863556,667,17.76631737
666,84.66261292,666,17.7420311
665,84.66460419,665,17.71317101
664,84.49533081,664,17.65753555
663,84.48335266,663,17.6448307
662,84.34941864,662,17.57880974
661,84.3152771,661,17.54235268
660,84.25806427,660,17.50610924
659,84.16523743,659,17.48167419
658,84.08493042,658,17.44365883
657,84.05560303,657,17.39562798
656,83.89211273,656,17.3638382
655,83.84444427,655,17.31879616
654,83.73242188,654,17.27531624
653,83.66034698,653,17.26804543
652,83.60809326,652,17.22113419
651,83.52690125,651,17.18317795
650,83.43693542,650,17.15046883
649,83.2909317,649,17.11098289
648,83.24790955,648,17.08648491
647,83.13803864,647,17.06605148
646,83.01057434,646,17.03120041
645,82.95946503,645,16.99572754
644,82.90666199,644,16.9535675
643,82.73851776,643,16.9224987
642,82.63356018,642,16.90088463
641,82.55568695,641,16.85650253
640,82.47244263,640,16.82534027
639,82.34835052,639,16.79923248
638,82.22616577,638,16.77490044
637,82.15740204,637,16.75595093
636,82.00734711,636,16.70431519
635,81.96431732,635,16.68783188
634,81.82003021,634,16.64815521
633,81.68772125,633,16.60783386
632,81.60864258,632,16.59336853
631,81.46537781,631,16.55760574
630,81.41040802,630,16.54343414
629,81.19376373,629,16.5069828
628,81.15838623,628,16.47512245
627,81.0216217,627,16.44776154
626,80.93624115,626,16.43081284
625,80.79129791,625,16.3940258
624,80.6440506,624,16.35921669
623,80.51577759,623,16.32925034
622,80.46644592,622,16.31446838
621,80.27468109,621,16.29489136
620,80.13467407,620,16.25204086
619,80.03408813,619,16.22304344
618,79.91757202,618,16.22457695
617,79.75390625,617,16.17236519
616,79.63970184,616,16.15087891
615,79.42360687,615,16.1203804
614,79.35240173,614,16.10574913
613,79.23284149,613,16.07735252
612,79.07746124,612,16.03362465
611,78.92282867,611,16.03254318
610,78.76807404,610,15.99682617
609,78.6072464,609,15.98412132
608,78.48884583,608,15.95852566
607,78.33840942,607,15.93083572
606,78.1968689,606,15.90558147
605,77.97580719,605,15.88825035
604,77.85751343,604,15.8557682
603,77.64740753,603,15.84554005
602,77.56984711,602,15.81376362
601,77.34397888,601,15.78740501
600,77.1990509,600,15.76483727
599,77.039505,599,15.73876476
598,76.8735733,598,15.71951485
597,76.67741394,597,15.71438313
596,76.51503754,596,15.69036674
595,76.34211731,595,15.66490555
594,76.18385315,594,15.65480232
593,76.00512695,593,15.6160984
592,75.82085419,592,15.59758377
591,75.66825104,591,15.58592892
590,75.46347046,590,15.5538826
589,75.31668091,589,15.54466343
588,75.13287354,588,15.52414036
587,74.88286591,587,15.5045557
586,74.69764709,586,15.48053741
585,74.58187866,585,15.46571255
584,74.36031342,584,15.45233727
583,74.19295502,583,15.41730499
582,73.96850586,582,15.41342926
581,73.7121582,581,15.38564396
580,73.55407715,580,15.37471962
579,73.38265228,579,15.35771656
578,73.13038635,578,15.33476734
577,72.93506622,577,15.31142044
576,72.67362976,576,15.29438496
575,72.4769516,575,15.27282429
574,72.33880615,574,15.26550674
573,72.09918976,573,15.24338245
572,71.87474823,572,15.21507359
571,71.603302,571,15.20881653
570,71.40924072,570,15.18705177
569,71.12312317,569,15.18201542
568,70.98345947,568,15.15479565
567,70.73060608,567,15.13510895
566,70.44801331,566,15.12238979
565,70.21081543,565,15.11863613
564,70.0262146,564,15.09289932
563,69.71148682,563,15.06325912
562,69.4696579,562,15.05786896
561,69.21595764,561,15.03914452
560,68.98252106,560,15.02731609
559,68.79638672,559,15.02661514
558,68.4394455,558,14.9860878
557,68.23335266,557,14.97842979
556,67.95800018,556,14.95485592
555,67.68650055,555,14.9362402
554,67.39835358,554,14.91888142
553,67.18023682,553,14.90671444
552,66.84329224,552,14.88297272
551,66.59947205,551,14.88338375
550,66.32322693,550,14.87340641
549,65.96073914,549,14.84579277
548,65.6977005,548,14.83320332
547,65.44377136,547,14.8195219
546,65.13924408,546,14.78556824
545,64.84729004,545,14.78795528
544,64.49204254,544,14.77256107
543,64.20500946,543,14.74552917
542,63.90693283,542,14.74442673
541,63.59030533,541,14.72348881
540,63.2603569,540,14.69965839
539,62.92198944,539,14.69583988
538,62.61802292,538,14.6911068
537,62.30760193,537,14.68106461
536,61.96377182,536,14.65005684
535,61.63851166,535,14.65367508
534,61.3064003,534,14.63291073
533,60.995327,533,14.61789036
532,60.68708801,532,14.60947704
531,60.2826004,531,14.59463501
530,59.9518013,530,14.56275749
529,59.6146698,529,14.57244492
528,59.25592804,528,14.54968929
527,58.90382385,527,14.53868103
526,58.55476761,526,14.53130436
525,58.17092514,525,14.52286434
524,57.79572678,524,14.49472332
523,57.45732117,523,14.46377945
522,57.13986206,522,14.47020149
521,56.71868896,521,14.45722103
520,56.38368607,520,14.45125771
519,55.98537445,519,14.4199791
518,55.64935303,518,14.41723824
517,55.26464462,517,14.41690063
516,54.91060638,516,14.39224625
515,54.52103043,515,14.38649178
514,54.18083191,514,14.37570858
513,53.81494904,513,14.36884117
512,53.40900421,512,14.35806274
511,53.07089615,511,14.33068371
510,52.73138428,510,14.3163023
509,52.35826492,509,14.32287407
508,51.98262405,508,14.30794716
507,51.62241364,507,14.29122543
506,51.24110413,506,14.28519344
505,50.84035873,505,14.26276112
504,50.53785324,504,14.25867271
503,50.1617012,503,14.25505543
502,49.79603577,502,14.23844433
501,49.4255867,501,14.21739006
500,49.04262543,500,14.20691586
499,48.69566345,499,14.20285702
498,48.31923676,498,14.19604015
497,47.97267914,497,14.18446445
496,47.59964752,496,14.16757107
495,47.2359848,495,14.1461153
494,46.85372925,494,14.15245819
493,46.47812653,493,14.14201832
492,46.14861679,492,14.13378716
491,45.76788712,491,14.11997223
490,45.37799835,490,14.11149502
489,45.01137543,489,14.09201622
488,44.6556282,488,14.08716011
487,44.32564926,487,14.07315159
486,43.95447922,486,14.08139038
485,43.60202408,485,14.06409931
484,43.2221489,484,14.04747963
483,42.84782791,483,14.0430088
482,42.51251602,482,14.02985287
481,42.10183716,481,14.02176762
480,41.75543976,480,13.99561119
479,41.39529037,479,14.01027489
478,41.02160263,478,14.01269245
477,40.63158417,477,13.98603058
476,40.3011055,476,13.98044682
475,39.90911102,475,13.9671917
474,39.58477783,474,13.95582962
473,39.21133041,473,13.95191574
472,38.82365417,472,13.94595337
471,38.4936409,471,13.95242214
470,38.09015274,470,13.92487907
469,37.73198318,469,13.92556763
468,37.40497971,468,13.9104147
467,37.03490067,467,13.9025135
466,36.62168503,466,13.89524651
465,36.30821991,465,13.90207863
464,35.95466232,464,13.89358521
463,35.56225967,463,13.86562443
462,35.22418213,462,13.87172031
461,34.89580917,461,13.86996937
460,34.48620605,460,13.85028362
459,34.15955734,459,13.83705616
458,33.84286499,458,13.83724499
457,33.49102402,457,13.84333706
456,33.13762665,456,13.8289814
455,32.76832199,455,13.82070065
454,32.44937134,454,13.81364059
453,32.11563873,453,13.82116508
452,31.78404808,452,13.80074501
451,31.42751694,451,13.77752876
450,31.10710335,450,13.78555012
449,30.78981018,449,13.78656006
448,30.47000122,448,13.78946114
447,30.1101799,447,13.77501488
446,29.79826546,446,13.74956036
445,29.4710331,445,13.78294945
444,29.14968681,444,13.75080776
443,28.87215996,443,13.75182438
442,28.52905655,442,13.74557209
441,28.20312691,441,13.73479366
440,27.90760422,440,13.71405411
439,27.6353054,439,13.74056816
438,27.25614929,438,13.71299934
437,26.97846985,437,13.7203474
436,26.65438652,436,13.71035385
435,26.37555885,435,13.70757484
434,26.05269241,434,13.68633461
433,25.78522301,433,13.70219707
432,25.44859123,432,13.69449615
431,25.1764946,431,13.6821661
430,24.85012054,430,13.68943119
429,24.53666878,429,13.67099762
428,24.29242706,428,13.6742115
427,24.00226212,427,13.67884445
426,23.70461464,426,13.68349171
425,23.42838478,425,13.66432762
424,23.13294792,424,13.6661272
423,22.85722733,423,13.64554596
422,22.56370354,422,13.65802765
421,22.3218956,421,13.65133095
420,22.03527451,420,13.63117504
419,21.74565887,419,13.64920902
418,21.48617744,418,13.63789749
417,21.21146011,417,13.63602734
416,20.95696068,416,13.61493301
415,20.72899628,415,13.61903381
414,20.45498276,414,13.62591362
413,20.19793701,413,13.60459137
412,19.93020248,412,13.57234287
411,19.71123886,411,13.60908318
410,19.49612808,410,13.61539173
409,19.22328568,409,13.58603954
408,19.02189636,408,13.60502243
407,18.786726,407,13.62293625
406,18.56745148,406,13.56537342
405,18.34513474,405,13.59761238
404,18.12247276,404,13.57551098
403,17.89338684,403,13.55613327
402,17.67970848,402,13.55377769
401,17.47921944,401,13.55533409
400,17.29390907,400,13.54340935
399,17.10736084,399,13.53451633
398,16.92371941,398,13.55885983
397,16.72043419,397,13.55131149
396,16.57744408,396,13.50268269
395,16.33648872,395,13.52542305
394,16.17088699,394,13.50989532
393,16.03039932,393,13.50506115
392,15.86298466,392,13.53318691
391,15.70693207,391,13.52692699
390,15.55555344,390,13.47105503
389,15.42230511,389,13.51967716
388,15.2907629,388,13.45406342
387,15.13802719,387,13.46675014
386,14.97104359,386,13.487957
385,14.86671162,385,13.46148968
384,14.70512486,384,13.42087555
383,14.62763691,383,13.42450333
382,14.50160122,382,13.4378891
381,14.37337685,381,13.41082287
380,14.27641106,380,13.41506577
379,14.1460228,379,13.41614723
378,14.07167721,378,13.36552811
377,13.94636154,377,13.34117317
376,13.88953781,376,13.33027172
375,13.78815937,375,13.36858273
374,13.68255615,374,13.3577795
373,13.58548546,373,13.3300457
372,13.48075676,372,13.30540657
371,13.42066669,371,13.28542995
370,13.37191868,370,13.26675701
369,13.31314278,369,13.30033398
368,13.22500706,368,13.28613949
367,13.16770744,367,13.26708317
366,13.0793972,366,13.22964287
365,13.0355463,365,13.19758129
364,12.98440266,364,13.18937397
363,12.94929409,363,13.22447395
362,12.84030724,362,13.20154381
361,12.81878471,361,13.1868
360,12.75600529,360,13.17926216
359,12.67495632,359,13.11179066
358,12.73041248,358,13.05565262
357,12.67716599,357,13.14148426
356,12.62912941,356,13.11055565
355,12.55417919,355,13.02932358
354,12.5194521,354,13.05146694
353,12.51670074,353,13.0597887
352,12.49153614,352,13.00338173
351,12.446908,351,12.94932842
350,12.39373779,350,13.01028156
349,12.52408028,349,12.95848465
348,12.45329762,348,12.96745205
347,12.42516136,347,12.93618202
346,12.43473816,346,12.92318535
345,12.28401756,345,12.92339134
344,12.26528549,344,12.93827248
343,12.30754375,343,12.79159641
342,12.22961712,342,12.91259575
341,12.24022198,341,12.85863113
340,12.20292759,340,12.85130501
339,12.23966408,339,12.82143307
338,12.13305855,338,12.91771984
337,12.15841675,337,12.76533127
336,12.22096443,336,12.78809643
335,12.22505569,335,12.89447117
334,12.16253281,334,12.80614758
333,12.0978117,333,12.66055393
332,12.08512497,332,12.65009022
331,12.11631107,331,12.61469078
330,12.06847191,330,12.67156792
329,12.06791687,329,12.61240864
328,12.15819359,328,12.68230057
327,12.03231621,327,12.58812237
326,12.13903236,326,12.60908127
325,12.07977486,325,12.60926247
324,12.0159874,324,12.57498741
323,12.10049534,323,12.59384918
322,12.14542007,322,12.64133739
321,12.09480286,321,12.48278999
320,12.03561115,320,12.56630707
319,12.02319527,319,12.46140194
318,12.03664207,318,12.43371582
317,12.0681076,317,12.42903042
316,11.95016861,316,12.44116783
315,11.99275017,315,12.45569229
314,11.97287369,314,12.52851295
313,11.93290806,313,12.41614532
312,11.95790863,312,12.3536253
311,12.02582455,311,12.33346272
310,11.93633366,310,12.30166626
309,12.00598145,309,12.29989338
308,11.95764732,308,12.32396984
307,12.01318741,307,12.19837761
306,11.81784534,306,12.19369793
305,11.99082184,305,12.15900803
304,11.96473789,304,12.1631031
303,11.95113468,303,12.17195511
302,11.915658,302,12.07166576
301,11.85628414,301,12.14596939
300,11.98665905,300,12.12518311
299,11.86201668,299,12.12270451
298,11.93577576,298,12.10612106
297,11.83091259,297,12.00050831
296,11.91976166,296,12.03033447
295,11.98188972,295,12.0103178
294,11.88035488,294,11.90126228
293,11.86219692,293,11.93131924
292,11.9500742,292,12.02367306
291,11.91619205,291,11.92029381
290,11.93280029,290,11.88710213
289,11.95349312,289,11.902421
288,11.92314148,288,11.8409462
287,11.98484612,287,11.87646103
286,12.08919621,286,11.91559315
285,11.98990822,285,11.88178635
284,12.08662605,284,12.00637722
283,12.14668941,283,11.9825983
282,12.1794672,282,11.86905479
281,12.33457279,281,12.0152998
280,12.44048023,280,12.07374763
279,12.45094681,279,12.07198715
278,12.58152294,278,12.1858654
277,12.50458908,277,12.13196564
276,12.47915554,276,12.10693264
275,12.55083084,275,11.98696613
274,12.57559681,274,11.94073868
273,12.64970779,273,12.07121658
272,12.83052254,272,12.1079483
271,12.79424858,271,12.07753086
270,12.78456306,270,12.06639481
269,12.76290989,269,11.98872185
268,12.8674078,268,12.07408142
267,12.85540581,267,12.03534508
266,12.85847092,266,12.04882622
265,12.93194294,265,11.99939919
264,13.00246525,264,12.08896542
263,13.05939388,263,11.93868542
262,13.03469944,262,11.93157291
261,13.04788589,261,11.92778587
260,13.13067245,260,11.95812035
259,13.12854099,259,12.00388718
258,13.17057133,258,11.95325184
257,13.28042603,257,11.979599
256,13.20961094,256,11.89736652
255,13.21509171,255,11.86603069
254,13.37799549,254,11.95105934
253,13.3716774,253,11.7977829
252,13.37941742,252,11.84624767
251,13.46616173,251,11.83108521
250,13.49280167,250,11.85413933
249,13.55210876,249,11.93534088
248,13.61079693,248,11.91244793
247,13.66486073,247,11.86717129
246,13.76820183,246,11.85707569
245,13.85949135,245,12.00203419
244,13.91472626,244,12.00949192
243,14.02561378,243,12.07834339
242,14.12733364,242,12.12788773
241,14.27493572,241,12.19807529
240,14.48690605,240,12.21949291
239,14.5431366,239,12.41149616
238,14.859869,238,12.55701828
237,15.08685303,237,12.68068886
236,15.26698017,236,12.84759331
235,15.82612991,235,13.34345818
234,16.11830902,234,13.40850735
233,16.22262764,233,13.49254131
232,16.36544991,232,13.6418848
231,16.51352882,231,13.76442337
230,16.75084877,230,13.92690849
229,16.97767448,229,14.14012623
228,17.11903763,228,14.30988121
227,17.28391266,227,14.47414207
226,17.37008858,226,14.60219193
225,17.55876541,225,14.88618565
224,17.79366493,224,14.91548252
223,17.9519043,223,15.06922054
222,18.0975647,222,15.22686768
221,18.47824669,221,15.40964699
220,18.62183571,220,15.64834404
219,19.21603775,219,15.96886635
218,19.32837296,218,16.20567513
217,19.49798203,217,16.30444145
216,19.87586784,216,16.41318321
215,20.5259304,215,16.86057663
214,20.63059616,214,17.19268417
213,21.05615234,213,17.52310944
212,21.70059776,212,17.7134819
211,22.49378777,211,18.09220123
210,22.713974,210,18.48330116
209,23.13656425,209,18.78680038
208,23.75982475,208,18.98310661
207,24.4359951,207,19.56027794
206,24.69136238,206,19.77327538
205,25.02684593,205,20.48004723
204,24.79995918,204,20.48059273
203,25.89881516,203,21.03760719
202,27.16143036,202,21.66802216
201,26.72800446,201,21.89994812
200,26.93354797,200,21.97156334
